% Moku:Go Oscilloscope
% Channel A (Input 2), DC coupling, 1 x probe attenuation
% Channel B (Input 1), DC coupling, 1 x probe attenuation
% Time span 480.9 ms, time offset 3.629 ms, Normal acquisition mode, no averaging
% Edge trigger: Channel A, level 0.000 V, Auto mode, Rising edge, Auto sensitivity, noise reject off, HF reject off
% Output 1 (off) - Sine, 10.000 000 000 000 MHz, 1.000 0 Vpp, offset 0.000 0 V, phase 0.000 000 deg
% Output 2 (off) - Ramp, 50.000 000 000 kHz, 500.0 mVpp, offset 0.000 0 V, phase 0.000 000 deg, symmetry 90.00 %
% Acquired 2025-06-23 T 17:01:12 +0200
% Time (s), Channel A (Input 2) (V), Channel B (Input 1) (V)
-2.441126400000e-01, 3.804348e+00, 2.796776e-01
-2.436411200000e-01, 3.761602e+00, 3.016610e-01
-2.431696000000e-01, 3.718857e+00, 3.126527e-01
-2.426980800000e-01, 3.676111e+00, 3.199805e-01
-2.422265600000e-01, 3.639472e+00, 3.236444e-01
-2.417550400000e-01, 3.602833e+00, 3.260870e-01
-2.412835200000e-01, 3.572301e+00, 3.273083e-01
-2.408120000000e-01, 3.529555e+00, 3.285296e-01
-2.403404800000e-01, 3.492916e+00, 3.297509e-01
-2.398689600000e-01, 3.450171e+00, 3.309722e-01
-2.393974400000e-01, 3.419638e+00, 3.321935e-01
-2.389259200000e-01, 3.370786e+00, 3.334148e-01
-2.384544000000e-01, 3.328041e+00, 3.321935e-01
-2.379828800000e-01, 3.291402e+00, 3.321935e-01
-2.375113600000e-01, 3.254763e+00, 3.321935e-01
-2.370398400000e-01, 3.212018e+00, 3.321935e-01
-2.365683200000e-01, 3.169272e+00, 3.321935e-01
-2.360968000000e-01, 3.138740e+00, 3.334148e-01
-2.356252800000e-01, 3.095994e+00, 3.321935e-01
-2.351537600000e-01, 3.065462e+00, 3.334148e-01
-2.346822400000e-01, 3.016610e+00, 3.321935e-01
-2.342107200000e-01, 2.979971e+00, 3.309722e-01
-2.337392000000e-01, 2.949438e+00, 3.297509e-01
-2.332676800000e-01, 2.906693e+00, 3.236444e-01
-2.327961600000e-01, 2.876160e+00, 3.150953e-01
-2.323246400000e-01, 2.833415e+00, 3.150953e-01
-2.318531200000e-01, 2.790669e+00, 3.260870e-01
-2.313816000000e-01, 2.754030e+00, 3.297509e-01
-2.309100800000e-01, 2.711285e+00, 3.321935e-01
-2.304385600000e-01, 2.674646e+00, 3.334148e-01
-2.299670400000e-01, 2.631900e+00, 3.334148e-01
-2.294955200000e-01, 2.595261e+00, 3.334148e-01
-2.290240000000e-01, 2.558622e+00, 3.334148e-01
-2.285524800000e-01, 2.528090e+00, 3.334148e-01
-2.280809600000e-01, 2.491451e+00, 3.334148e-01
-2.276094400000e-01, 2.454812e+00, 3.334148e-01
-2.271379200000e-01, 2.412066e+00, 3.346361e-01
-2.266664000000e-01, 2.369321e+00, 3.346361e-01
-2.261948800000e-01, 2.332682e+00, 3.346361e-01
-2.257233600000e-01, 2.296043e+00, 3.346361e-01
-2.252518400000e-01, 2.253297e+00, 3.334148e-01
-2.247803200000e-01, 2.216659e+00, 3.334148e-01
-2.243088000000e-01, 2.180020e+00, 3.346361e-01
-2.238372800000e-01, 2.143381e+00, 3.334148e-01
-2.233657600000e-01, 2.100635e+00, 3.346361e-01
-2.228942400000e-01, 2.051783e+00, 3.346361e-01
-2.224227200000e-01, 2.021251e+00, 3.334148e-01
-2.219512000000e-01, 1.978505e+00, 3.334148e-01
-2.214796800000e-01, 1.947973e+00, 3.346361e-01
-2.210081600000e-01, 1.905227e+00, 3.346361e-01
-2.205366400000e-01, 1.862482e+00, 3.346361e-01
-2.200651200000e-01, 1.838056e+00, 3.358574e-01
-2.195936000000e-01, 1.789204e+00, 3.346361e-01
-2.191220800000e-01, 1.752565e+00, 3.346361e-01
-2.186505600000e-01, 1.709819e+00, 3.346361e-01
-2.181790400000e-01, 1.673180e+00, 3.346361e-01
-2.177075200000e-01, 1.642648e+00, 3.346361e-01
-2.172360000000e-01, 1.593796e+00, 3.346361e-01
-2.167644800000e-01, 1.557157e+00, 3.346361e-01
-2.162929600000e-01, 1.520518e+00, 3.358574e-01
-2.158214400000e-01, 1.477772e+00, 3.334148e-01
-2.153499200000e-01, 1.441133e+00, 3.346361e-01
-2.148784000000e-01, 1.404494e+00, 3.346361e-01
-2.144068800000e-01, 1.367855e+00, 3.334148e-01
-2.139353600000e-01, 1.325110e+00, 3.334148e-01
-2.134638400000e-01, 1.294577e+00, 3.346361e-01
-2.129923200000e-01, 1.245725e+00, 3.334148e-01
-2.125208000000e-01, 1.209086e+00, 3.334148e-01
-2.120492800000e-01, 1.178554e+00, 3.334148e-01
-2.115777600000e-01, 1.129702e+00, 3.346361e-01
-2.111062400000e-01, 1.093063e+00, 3.334148e-01
-2.106347200000e-01, 1.056424e+00, 3.346361e-01
-2.101632000000e-01, 1.025892e+00, 3.334148e-01
-2.096916800000e-01, 9.770396e-01, 3.346361e-01
-2.092201600000e-01, 9.465071e-01, 3.346361e-01
-2.087486400000e-01, 9.159746e-01, 3.346361e-01
-2.082771200000e-01, 8.671226e-01, 3.346361e-01
-2.078056000000e-01, 8.304836e-01, 3.334148e-01
-2.073340800000e-01, 7.755252e-01, 3.334148e-01
-2.068625600000e-01, 7.449927e-01, 3.346361e-01
-2.063910400000e-01, 7.083537e-01, 3.346361e-01
-2.059195200000e-01, 6.717147e-01, 3.346361e-01
-2.054480000000e-01, 6.350757e-01, 3.334148e-01
-2.049764800000e-01, 5.923302e-01, 3.334148e-01
-2.045049600000e-01, 5.556913e-01, 3.334148e-01
-2.040334400000e-01, 5.129458e-01, 3.334148e-01
-2.035619200000e-01, 4.763068e-01, 3.334148e-01
-2.030904000000e-01, 4.396678e-01, 3.346361e-01
-2.026188800000e-01, 4.030288e-01, 3.334148e-01
-2.021473600000e-01, 3.602833e-01, 3.346361e-01
-2.016758400000e-01, 3.419638e-01, 3.334148e-01
-2.012043200000e-01, 2.870054e-01, 3.346361e-01
-2.007328000000e-01, 2.442599e-01, 3.346361e-01
-2.002612800000e-01, 2.076209e-01, 3.334148e-01
-1.997897600000e-01, 1.648754e-01, 3.334148e-01
-1.993182400000e-01, 1.282364e-01, 3.334148e-01
-1.988467200000e-01, 9.159746e-02, 3.334148e-01
-1.983752000000e-01, 4.885198e-02, 3.334148e-01
-1.979036800000e-01, 1.831949e-02, 3.334148e-01
-1.974321600000e-01, -2.442599e-02, 3.321935e-01
-1.969606400000e-01, -6.717147e-02, 3.321935e-01
-1.964891200000e-01, -1.038105e-01, 3.321935e-01
-1.960176000000e-01, -1.404494e-01, 3.334148e-01
-1.955460800000e-01, -1.770884e-01, 3.309722e-01
-1.950745600000e-01, -2.137274e-01, 3.321935e-01
-1.946030400000e-01, -2.503664e-01, 3.334148e-01
-1.941315200000e-01, -2.931119e-01, 3.334148e-01
-1.936600000000e-01, -3.358573e-01, 3.334148e-01
-1.931884800000e-01, -3.724963e-01, 3.334148e-01
-1.927169600000e-01, -4.152418e-01, 3.334148e-01
-1.922454400000e-01, -4.518808e-01, 3.334148e-01
-1.917739200000e-01, -4.946263e-01, 3.334148e-01
-1.913024000000e-01, -5.251588e-01, 3.346361e-01
-1.908308800000e-01, -5.617977e-01, 3.334148e-01
-1.903593600000e-01, -6.045432e-01, 3.346361e-01
-1.898878400000e-01, -6.472887e-01, 3.334148e-01
-1.894163200000e-01, -6.778212e-01, 3.334148e-01
-1.889448000000e-01, -7.266732e-01, 3.334148e-01
-1.884732800000e-01, -7.510992e-01, 3.334148e-01
-1.880017600000e-01, -7.938446e-01, 3.346361e-01
-1.875302400000e-01, -8.365901e-01, 3.358574e-01
-1.870587200000e-01, -8.732291e-01, 3.358574e-01
-1.865872000000e-01, -9.098681e-01, 3.346361e-01
-1.861156800000e-01, -9.404006e-01, 3.346361e-01
-1.856441600000e-01, -9.892526e-01, 3.346361e-01
-1.851726400000e-01, -1.031998e+00, 3.346361e-01
-1.847011200000e-01, -1.068637e+00, 3.346361e-01
-1.842296000000e-01, -1.105276e+00, 3.334148e-01
-1.837580800000e-01, -1.154128e+00, 3.346361e-01
-1.832865600000e-01, -1.190767e+00, 3.334148e-01
-1.828150400000e-01, -1.221299e+00, 3.334148e-01
-1.823435200000e-01, -1.264045e+00, 3.334148e-01
-1.818720000000e-01, -1.294577e+00, 3.334148e-01
-1.814004800000e-01, -1.337323e+00, 3.346361e-01
-1.809289600000e-01, -1.380068e+00, 3.346361e-01
-1.804574400000e-01, -1.410601e+00, 3.346361e-01
-1.799859200000e-01, -1.453346e+00, 3.346361e-01
-1.795144000000e-01, -1.483879e+00, 3.346361e-01
-1.790428800000e-01, -1.538837e+00, 3.346361e-01
-1.785713600000e-01, -1.563263e+00, 3.334148e-01
-1.780998400000e-01, -1.606009e+00, 3.334148e-01
-1.776283200000e-01, -1.642648e+00, 3.346361e-01
-1.771568000000e-01, -1.691500e+00, 3.334148e-01
-1.766852800000e-01, -1.728139e+00, 3.346361e-01
-1.762137600000e-01, -1.764778e+00, 3.346361e-01
-1.757422400000e-01, -1.801417e+00, 3.346361e-01
-1.752707200000e-01, -1.844162e+00, 3.346361e-01
-1.747992000000e-01, -1.880801e+00, 3.334148e-01
-1.743276800000e-01, -1.923547e+00, 3.346361e-01
-1.738561600000e-01, -1.960186e+00, 3.358574e-01
-1.733846400000e-01, -2.002931e+00, 3.358574e-01
-1.729131200000e-01, -2.033464e+00, 3.346361e-01
-1.724416000000e-01, -2.076209e+00, 3.346361e-01
-1.719700800000e-01, -2.106742e+00, 3.334148e-01
-1.714985600000e-01, -2.155594e+00, 3.334148e-01
-1.710270400000e-01, -2.180020e+00, 3.346361e-01
-1.705555200000e-01, -2.222765e+00, 3.346361e-01
-1.700840000000e-01, -2.271617e+00, 3.358574e-01
-1.696124800000e-01, -2.308256e+00, 3.346361e-01
-1.691409600000e-01, -2.344895e+00, 3.346361e-01
-1.686694400000e-01, -2.387640e+00, 3.346361e-01
-1.681979200000e-01, -2.418173e+00, 3.346361e-01
-1.677264000000e-01, -2.454812e+00, 3.334148e-01
-1.672548800000e-01, -2.503664e+00, 3.346361e-01
-1.667833600000e-01, -2.534196e+00, 3.346361e-01
-1.663118400000e-01, -2.570835e+00, 3.334148e-01
-1.658403200000e-01, -2.607474e+00, 3.346361e-01
-1.653688000000e-01, -2.650220e+00, 3.334148e-01
-1.648972800000e-01, -2.686859e+00, 3.334148e-01
-1.644257600000e-01, -2.729604e+00, 3.334148e-01
-1.639542400000e-01, -2.766243e+00, 3.334148e-01
-1.634827200000e-01, -2.808989e+00, 3.334148e-01
-1.630112000000e-01, -2.839521e+00, 3.334148e-01
-1.625396800000e-01, -2.882267e+00, 3.321935e-01
-1.620681600000e-01, -2.918906e+00, 3.334148e-01
-1.615966400000e-01, -2.955545e+00, 3.309722e-01
-1.611251200000e-01, -3.004397e+00, 3.309722e-01
-1.606536000000e-01, -3.034929e+00, 3.297509e-01
-1.601820800000e-01, -3.071568e+00, 3.273083e-01
-1.597105600000e-01, -3.114314e+00, 3.236444e-01
-1.592390400000e-01, -3.144846e+00, 3.163166e-01
-1.587675200000e-01, -3.187592e+00, 2.955545e-01
-1.582960000000e-01, -3.230337e+00, 2.173913e-01
-1.578244800000e-01, -3.266976e+00, 7.327797e-02
-1.573529600000e-01, -3.303615e+00, 1.587689e-01
-1.568814400000e-01, -3.346360e+00, 2.821202e-01
-1.564099200000e-01, -3.389106e+00, 3.126527e-01
-1.559384000000e-01, -3.431851e+00, 3.236444e-01
-1.554668800000e-01, -3.462384e+00, 3.297509e-01
-1.549953600000e-01, -3.505129e+00, 3.309722e-01
-1.545238400000e-01, -3.541768e+00, 3.321935e-01
-1.540523200000e-01, -3.590620e+00, 3.334148e-01
-1.535808000000e-01, -3.621153e+00, 3.334148e-01
-1.531092800000e-01, -3.657792e+00, 3.358574e-01
-1.526377600000e-01, -3.694431e+00, 3.346361e-01
-1.521662400000e-01, -3.731070e+00, 3.346361e-01
-1.516947200000e-01, -3.767709e+00, 3.358574e-01
-1.512232000000e-01, -3.804348e+00, 3.346361e-01
-1.507516800000e-01, -3.847093e+00, 3.358574e-01
-1.502801600000e-01, -3.889839e+00, 3.346361e-01
-1.498086400000e-01, -3.926478e+00, 3.346361e-01
-1.493371200000e-01, -3.963117e+00, 3.370787e-01
-1.488656000000e-01, -3.999756e+00, 3.358574e-01
-1.483940800000e-01, -4.042501e+00, 3.358574e-01
-1.479225600000e-01, -4.073034e+00, 3.358574e-01
-1.474510400000e-01, -4.121886e+00, 3.358574e-01
-1.469795200000e-01, -4.164631e+00, 3.358574e-01
-1.465080000000e-01, -4.201270e+00, 3.358574e-01
-1.460364800000e-01, -4.237909e+00, 3.358574e-01
-1.455649600000e-01, -4.274548e+00, 3.358574e-01
-1.450934400000e-01, -4.317294e+00, 3.358574e-01
-1.446219200000e-01, -4.353933e+00, 3.358574e-01
-1.441504000000e-01, -4.390572e+00, 3.370787e-01
-1.436788800000e-01, -4.427211e+00, 3.370787e-01
-1.432073600000e-01, -4.469956e+00, 3.358574e-01
-1.427358400000e-01, -4.500488e+00, 3.358574e-01
-1.422643200000e-01, -4.549340e+00, 3.358574e-01
-1.417928000000e-01, -4.585979e+00, 3.358574e-01
-1.413212800000e-01, -4.622618e+00, 3.358574e-01
-1.408497600000e-01, -4.659257e+00, 3.358574e-01
-1.403782400000e-01, -4.695896e+00, 3.358574e-01
-1.399067200000e-01, -4.732535e+00, 3.358574e-01
-1.394352000000e-01, -4.769174e+00, 3.358574e-01
-1.389636800000e-01, -4.818026e+00, 3.370787e-01
-1.384921600000e-01, -4.854665e+00, 3.370787e-01
-1.380206400000e-01, -4.897411e+00, 3.358574e-01
-1.375491200000e-01, -4.927943e+00, 3.358574e-01
-1.370776000000e-01, -4.970689e+00, 3.358574e-01
-1.366060800000e-01, -5.013434e+00, 3.358574e-01
-1.361345600000e-01, -5.050073e+00, 3.358574e-01
-1.356630400000e-01, -5.086712e+00, 3.358574e-01
-1.351915200000e-01, -5.129458e+00, 3.370787e-01
-1.347200000000e-01, -5.166097e+00, 3.358574e-01
-1.342484800000e-01, -5.202736e+00, 3.370787e-01
-1.337769600000e-01, -5.245481e+00, 3.358574e-01
-1.333054400000e-01, -5.282120e+00, 3.358574e-01
-1.328339200000e-01, -5.318759e+00, 3.358574e-01
-1.323624000000e-01, -5.349292e+00, 3.358574e-01
-1.318908800000e-01, -5.398144e+00, 3.358574e-01
-1.314193600000e-01, -5.440889e+00, 3.358574e-01
-1.309478400000e-01, -5.471422e+00, 3.358574e-01
-1.304763200000e-01, -5.508061e+00, 3.358574e-01
-1.300048000000e-01, -5.544700e+00, 3.358574e-01
-1.295332800000e-01, -5.587445e+00, 3.346361e-01
-1.290617600000e-01, -5.624084e+00, 3.346361e-01
-1.285902400000e-01, -5.672936e+00, 3.358574e-01
-1.281187200000e-01, -5.703468e+00, 3.358574e-01
-1.276472000000e-01, -5.746214e+00, 3.358574e-01
-1.271756800000e-01, -5.782853e+00, 3.358574e-01
-1.267041600000e-01, -5.813385e+00, 3.346361e-01
-1.262326400000e-01, -5.856131e+00, 3.358574e-01
-1.257611200000e-01, -5.892770e+00, 3.346361e-01
-1.252896000000e-01, -5.935515e+00, 3.346361e-01
-1.248180800000e-01, -5.966048e+00, 3.334148e-01
-1.243465600000e-01, -6.008793e+00, 3.346361e-01
-1.238750400000e-01, -6.051539e+00, 3.346361e-01
-1.234035200000e-01, -6.088178e+00, 3.346361e-01
-1.229320000000e-01, -6.130923e+00, 3.358574e-01
-1.224604800000e-01, -6.161456e+00, 3.358574e-01
-1.219889600000e-01, -6.198095e+00, 3.346361e-01
-1.215174400000e-01, -6.240840e+00, 3.358574e-01
-1.210459200000e-01, -6.289692e+00, 3.346361e-01
-1.205744000000e-01, -6.314118e+00, 3.358574e-01
-1.201028800000e-01, -6.356864e+00, 3.358574e-01
-1.196313600000e-01, -6.399609e+00, 3.370787e-01
-1.191598400000e-01, -6.442355e+00, 3.346361e-01
-1.186883200000e-01, -6.478994e+00, 3.358574e-01
-1.182168000000e-01, -6.515633e+00, 3.346361e-01
-1.177452800000e-01, -6.552272e+00, 3.358574e-01
-1.172737600000e-01, -6.588911e+00, 3.346361e-01
-1.168022400000e-01, -6.637763e+00, 3.358574e-01
-1.163307200000e-01, -6.674401e+00, 3.358574e-01
-1.158592000000e-01, -6.711040e+00, 3.358574e-01
-1.153876800000e-01, -6.747679e+00, 3.358574e-01
-1.149161600000e-01, -6.778212e+00, 3.358574e-01
-1.144446400000e-01, -6.820957e+00, 3.358574e-01
-1.139731200000e-01, -6.869809e+00, 3.358574e-01
-1.135016000000e-01, -6.906448e+00, 3.358574e-01
-1.130300800000e-01, -6.943087e+00, 3.370787e-01
-1.125585600000e-01, -6.979726e+00, 3.370787e-01
-1.120870400000e-01, -7.022472e+00, 3.358574e-01
-1.116155200000e-01, -7.065217e+00, 3.358574e-01
-1.111440000000e-01, -7.089643e+00, 3.370787e-01
-1.106724800000e-01, -7.132389e+00, 3.358574e-01
-1.102009600000e-01, -7.169028e+00, 3.358574e-01
-1.097294400000e-01, -7.205667e+00, 3.358574e-01
-1.092579200000e-01, -7.248412e+00, 3.358574e-01
-1.087864000000e-01, -7.291158e+00, 3.358574e-01
-1.083148800000e-01, -7.333903e+00, 3.358574e-01
-1.078433600000e-01, -7.376649e+00, 3.370787e-01
-1.073718400000e-01, -7.407181e+00, 3.358574e-01
-1.069003200000e-01, -7.449927e+00, 3.370787e-01
-1.064288000000e-01, -7.480459e+00, 3.358574e-01
-1.059572800000e-01, -7.529311e+00, 3.370787e-01
-1.054857600000e-01, -7.565950e+00, 3.358574e-01
-1.050142400000e-01, -7.602589e+00, 3.358574e-01
-1.045427200000e-01, -7.645335e+00, 3.358574e-01
-1.040712000000e-01, -7.681974e+00, 3.370787e-01
-1.035996800000e-01, -7.718613e+00, 3.358574e-01
-1.031281600000e-01, -7.767465e+00, 3.358574e-01
-1.026566400000e-01, -7.810210e+00, 3.370787e-01
-1.021851200000e-01, -7.846849e+00, 3.358574e-01
-1.017136000000e-01, -7.883488e+00, 3.358574e-01
-1.012420800000e-01, -7.926233e+00, 3.370787e-01
-1.007705600000e-01, -7.962872e+00, 3.358574e-01
-1.002990400000e-01, -7.975085e+00, 3.358574e-01
-9.982752000000e-02, -7.999511e+00, 3.346361e-01
-9.935600000000e-02, -8.017831e+00, 3.358574e-01
-9.888448000000e-02, -8.017831e+00, 3.358574e-01
-9.841296000000e-02, -8.017831e+00, 3.358574e-01
-9.794144000000e-02, -8.005618e+00, 3.346361e-01
-9.746992000000e-02, -7.968979e+00, 3.358574e-01
-9.699840000000e-02, -7.950659e+00, 3.358574e-01
-9.652688000000e-02, -7.907914e+00, 3.370787e-01
-9.605536000000e-02, -7.871275e+00, 3.346361e-01
-9.558384000000e-02, -7.828529e+00, 3.358574e-01
-9.511232000000e-02, -7.785784e+00, 3.346361e-01
-9.464080000000e-02, -7.743039e+00, 3.358574e-01
-9.416928000000e-02, -7.706400e+00, 3.358574e-01
-9.369776000000e-02, -7.669761e+00, 3.358574e-01
-9.322624000000e-02, -7.633122e+00, 3.346361e-01
-9.275472000000e-02, -7.584270e+00, 3.358574e-01
-9.228320000000e-02, -7.541524e+00, 3.358574e-01
-9.181168000000e-02, -7.510992e+00, 3.358574e-01
-9.134016000000e-02, -7.468246e+00, 3.358574e-01
-9.086864000000e-02, -7.425501e+00, 3.358574e-01
-9.039712000000e-02, -7.394968e+00, 3.358574e-01
-8.992560000000e-02, -7.358329e+00, 3.358574e-01
-8.945408000000e-02, -7.309477e+00, 3.358574e-01
-8.898256000000e-02, -7.266732e+00, 3.358574e-01
-8.851104000000e-02, -7.223986e+00, 3.358574e-01
-8.803952000000e-02, -7.181241e+00, 3.358574e-01
-8.756800000000e-02, -7.150708e+00, 3.358574e-01
-8.709648000000e-02, -7.114069e+00, 3.358574e-01
-8.662496000000e-02, -7.071324e+00, 3.358574e-01
-8.615344000000e-02, -7.034685e+00, 3.358574e-01
-8.568192000000e-02, -6.998046e+00, 3.358574e-01
-8.521040000000e-02, -6.967513e+00, 3.358574e-01
-8.473888000000e-02, -6.918661e+00, 3.358574e-01
-8.426736000000e-02, -6.882022e+00, 3.358574e-01
-8.379584000000e-02, -6.845383e+00, 3.370787e-01
-8.332432000000e-02, -6.802638e+00, 3.370787e-01
-8.285280000000e-02, -6.765999e+00, 3.358574e-01
-8.238128000000e-02, -6.735466e+00, 3.370787e-01
-8.190976000000e-02, -6.698827e+00, 3.358574e-01
-8.143824000000e-02, -6.656082e+00, 3.370787e-01
-8.096672000000e-02, -6.613337e+00, 3.358574e-01
-8.049520000000e-02, -6.570591e+00, 3.370787e-01
-8.002368000000e-02, -6.540059e+00, 3.358574e-01
-7.955216000000e-02, -6.497313e+00, 3.358574e-01
-7.908064000000e-02, -6.460674e+00, 3.370787e-01
-7.860912000000e-02, -6.430142e+00, 3.370787e-01
-7.813760000000e-02, -6.387396e+00, 3.370787e-01
-7.766608000000e-02, -6.344651e+00, 3.358574e-01
-7.719456000000e-02, -6.308012e+00, 3.358574e-01
-7.672304000000e-02, -6.271373e+00, 3.358574e-01
-7.625152000000e-02, -6.234734e+00, 3.358574e-01
-7.578000000000e-02, -6.198095e+00, 3.370787e-01
-7.530848000000e-02, -6.155349e+00, 3.358574e-01
-7.483696000000e-02, -6.118710e+00, 3.358574e-01
-7.436544000000e-02, -6.075965e+00, 3.370787e-01
-7.389392000000e-02, -6.033219e+00, 3.370787e-01
-7.342240000000e-02, -5.990474e+00, 3.358574e-01
-7.295088000000e-02, -5.947728e+00, 3.370787e-01
-7.247936000000e-02, -5.917196e+00, 3.358574e-01
-7.200784000000e-02, -5.880557e+00, 3.358574e-01
-7.153632000000e-02, -5.843918e+00, 3.358574e-01
-7.106480000000e-02, -5.801172e+00, 3.358574e-01
-7.059328000000e-02, -5.758427e+00, 3.358574e-01
-7.012176000000e-02, -5.727894e+00, 3.358574e-01
-6.965024000000e-02, -5.691255e+00, 3.370787e-01
-6.917872000000e-02, -5.648510e+00, 3.358574e-01
-6.870720000000e-02, -5.605764e+00, 3.358574e-01
-6.823568000000e-02, -5.569125e+00, 3.370787e-01
-6.776416000000e-02, -5.532487e+00, 3.370787e-01
-6.729264000000e-02, -5.501954e+00, 3.370787e-01
-6.682112000000e-02, -5.453102e+00, 3.358574e-01
-6.634960000000e-02, -5.416463e+00, 3.358574e-01
-6.587808000000e-02, -5.373718e+00, 3.358574e-01
-6.540656000000e-02, -5.330972e+00, 3.358574e-01
-6.493504000000e-02, -5.300440e+00, 3.358574e-01
-6.446352000000e-02, -5.251588e+00, 3.358574e-01
-6.399200000000e-02, -5.214949e+00, 3.358574e-01
-6.352048000000e-02, -5.184416e+00, 3.358574e-01
-6.304896000000e-02, -5.135564e+00, 3.358574e-01
-6.257744000000e-02, -5.098925e+00, 3.358574e-01
-6.210592000000e-02, -5.062286e+00, 3.358574e-01
-6.163440000000e-02, -5.025647e+00, 3.358574e-01
-6.116288000000e-02, -4.982902e+00, 3.370787e-01
-6.069136000000e-02, -4.946263e+00, 3.370787e-01
-6.021984000000e-02, -4.909624e+00, 3.358574e-01
-5.974832000000e-02, -4.866878e+00, 3.370787e-01
-5.927680000000e-02, -4.824133e+00, 3.358574e-01
-5.880528000000e-02, -4.787494e+00, 3.358574e-01
-5.833376000000e-02, -4.750855e+00, 3.358574e-01
-5.786224000000e-02, -4.720322e+00, 3.358574e-01
